%time,field.linear.x,field.linear.y,field.linear.z,field.angular.x,field.angular.y,field.angular.z
36328000000,0.022891362808186485,-0.20495465268399135,0.15528833992780952,-0.0,-0.0,-0.0
36339000000,0.022853905726071783,-0.2049555409669596,0.15519305962508398,-0.0,-0.0,-0.0
36349000000,0.022545689756164954,-0.20479224028121354,0.15418989377043055,-0.0,-0.0,-0.0
36359000000,0.022201738050247444,-0.20460608496281502,0.1529998471227627,-0.0,-0.0,-0.0
36369000000,0.021799032480824883,-0.2044374682339276,0.15159895011388294,-0.0,-0.0,-0.0
36379000000,0.02119188417757097,-0.20423827497677435,0.1494782552619607,-0.0,-0.0,-0.0
36389000000,0.02069588024894369,-0.20410244902259797,0.14773994350075553,-0.0,-0.0,-0.0
36399000000,0.020173024463880147,-0.20397350935724595,0.1459025567886671,-0.0,-0.0,-0.0
36409000000,0.01944320767218907,-0.20380573799802154,0.14333000411012994,-0.0,-0.0,-0.0
36419000000,0.018877005942609704,-0.20367703676771562,0.1413270191537681,-0.0,-0.0,-0.0
36428000000,0.018298542986433363,-0.20354179857532442,0.13927375679345103,-0.0,-0.0,-0.0
36439000000,0.017512621442472395,-0.2033476185034306,0.13647322039757698,-0.0,-0.0,-0.0
36449000000,0.016915422559460106,-0.20318834365305646,0.13433608494560345,-0.0,-0.0,-0.0
36459000000,0.016313818558954286,-0.20301563666423458,0.13217505267152008,-0.0,-0.0,-0.0
36469000000,0.015507075381433174,-0.2027635684222239,0.12926489759663293,-0.0,-0.0,-0.0
36478000000,0.014900414514248337,-0.20255647114807837,0.12706665257031885,-0.0,-0.0,-0.0
36489000000,0.014293674451101994,-0.20233326134162682,0.12485953529509679,-0.0,-0.0,-0.0
36499000000,0.013485652859110183,-0.20201118961462017,0.1219076262578376,-0.0,-0.0,-0.0
36508000000,0.012881546790365503,-0.20175054899193423,0.11969075667797303,-0.0,-0.0,-0.0
36518000000,0.012279893429252715,-0.2014735689793763,0.11747438353204713,-0.0,-0.0,-0.0
36529000000,0.011481945963954993,-0.20108012496045463,0.11452259012832751,-0.0,-0.0,-0.0
36539000000,0.010887473367117158,-0.20076657701679945,0.1123138608027148,-0.0,-0.0,-0.0
36548000000,0.010296950182875917,-0.2004374856731483,0.11011158701636806,-0.0,-0.0,-0.0
36559000000,0.00951580087167671,-0.19997602613739499,0.10718657991249424,-0.0,-0.0,-0.0
36569000000,0.00893517482736728,-0.199612716431217,0.10500317703652241,-0.0,-0.0,-0.0
36578000000,0.008359399957236975,-0.19923502741835025,0.10283013472363148,-0.0,-0.0,-0.0
36589000000,0.007599089600644899,-0.19871057731233235,0.09994932273008873,-0.0,-0.0,-0.0
36598000000,0.0070348366937989905,-0.1983013962472655,0.09780248338995429,-0.0,-0.0,-0.0
36609000000,0.00647612461375302,-0.19787875849342068,0.09566886351562125,-0.0,-0.0,-0.0
36618000000,0.00573918239044015,-0.19729617625757706,0.09284394796684703,-0.0,-0.0,-0.0
36629000000,0.005193073770926496,-0.19684438517939415,0.09074162253246197,-0.0,-0.0,-0.0
36639000000,0.004652542788751565,-0.19638058976317366,0.08865367420101021,-0.0,-0.0,-0.0
36648000000,0.003940194723230845,-0.19574479704211334,0.08589160721410484,-0.0,-0.0,-0.0
36659000000,0.003412767936115781,-0.19525425307881936,0.08383783687057086,-0.0,-0.0,-0.0
36668000000,0.0028910586168572386,-0.19475264055517522,0.08179941414098814,-0.0,-0.0,-0.0
36678000000,0.0022039744945234465,-0.19406775462554315,0.07910464689975245,-0.0,-0.0,-0.0
36689000000,0.0016955825782364966,-0.19354139961794486,0.07710216783323025,-0.0,-0.0,-0.0
36699000000,0.0011929526195761293,-0.193004771202602,0.07511558884490627,-0.0,-0.0,-0.0
36709000000,0.0005313478250447368,-0.1922743232053744,0.07249064093922848,-0.0,-0.0,-0.0
36718000000,4.183283358590263e-05,-0.19171495707423525,0.07054042128932607,-0.0,-0.0,-0.0
36729000000,-0.0004416754603594064,-0.19114576265171826,0.06860692043182413,-0.0,-0.0,-0.0
36739000000,-0.0010778354694662747,-0.19037276657951338,0.06605312692560149,-0.0,-0.0,-0.0
36749000000,-0.0015483379364615373,-0.18978223018173943,0.06415638880199892,-0.0,-0.0,-0.0
36759000000,-0.00201304980719847,-0.1891826636951988,0.06227609288673593,-0.0,-0.0,-0.0
36768000000,-0.0026241691600633744,-0.18837003407500783,0.05979340079129306,-0.0,-0.0,-0.0
36779000000,-0.003075699992535256,-0.18775012076343647,0.05795066954708636,-0.0,-0.0,-0.0
36789000000,-0.0035216099540162312,-0.18712171138279826,0.05612418424522234,-0.0,-0.0,-0.0
36798000000,-0.004107843613032433,-0.18627147483814685,0.053712995964756205,-0.0,-0.0,-0.0
36808000000,-0.00454106347455927,-0.18562421085436936,0.051923184264892945,-0.0,-0.0,-0.0
36818000000,-0.004968498599719789,-0.18496882464431058,0.05015011077205055,-0.0,-0.0,-0.0
36829000000,-0.005530267645742776,-0.18408322677544695,0.04780994278143507,-0.0,-0.0,-0.0
36838000000,-0.00594527783019713,-0.18341002650534446,0.04607317713738058,-0.0,-0.0,-0.0
36848000000,-0.006354610220180779,-0.18272920223793326,0.04435299633383294,-0.0,-0.0,-0.0
36859000000,-0.006892211811012823,-0.18181021351697665,0.04208360141907068,-0.0,-0.0,-0.0
36869000000,-0.007289271684908722,-0.18111246887235496,0.04039959940986132,-0.0,-0.0,-0.0
36878000000,-0.007680950376956793,-0.18040771960429114,0.03873151570458152,-0.0,-0.0,-0.0
36888000000,-0.008195310821810894,-0.17945774560409214,0.03653085023090426,-0.0,-0.0,-0.0
36898000000,-0.00857498282208143,-0.17873729070283872,0.03489837513130669,-0.0,-0.0,-0.0
36908000000,-0.008949188491486855,-0.1780101386082295,0.033282146157788725,-0.0,-0.0,-0.0
36919000000,-0.009440471064466832,-0.17703081517813127,0.031150208046966384,-0.0,-0.0,-0.0
36938000000,-0.00980298596567272,-0.1762888622179157,0.029568974268555967,-0.0,-0.0,-0.0
36939000000,-0.010279465907764806,-0.17529101525529409,0.027481785306966575,-0.0,-0.0,-0.0
36949000000,-0.010631057439672536,-0.1745357647686778,0.02593334105469553,-0.0,-0.0,-0.0
36958000000,-0.010976872631623433,-0.17377429744180886,0.02440232294847215,-0.0,-0.0,-0.0
36968000000,-0.011317577724583434,-0.17300691869411575,0.02288678101090573,-0.0,-0.0,-0.0
36979000000,-0.01176446057164234,-0.17197500010175037,0.0208886088265127,-0.0,-0.0,-0.0
36988000000,-0.012093873085130486,-0.17119447332932594,0.019407385428548717,-0.0,-0.0,-0.0
36998000000,-0.012418112130205518,-0.17040850675501032,0.017941929325680464,-0.0,-0.0,-0.0
37008000000,-0.012843222473867714,-0.1693525234371563,0.016010158821115707,-0.0,-0.0,-0.0
37019000000,-0.013156451141168125,-0.16855446913651212,0.014578434359369315,-0.0,-0.0,-0.0
37028000000,-0.013464779000619468,-0.16775146755025486,0.01316180715113827,-0.0,-0.0,-0.0
37039000000,-0.013868760364503479,-0.16667350905656506,0.011295009468484175,-0.0,-0.0,-0.0
37048000000,-0.014166232636103667,-0.1658594329764967,0.00991188008528028,-0.0,-0.0,-0.0
37058000000,-0.014458752135899674,-0.16504078640616993,0.008544107404192878,-0.0,-0.0,-0.0
37069000000,-0.014841896430765793,-0.16394243843139625,0.006741912673915493,-0.0,-0.0,-0.0
37079000000,-0.01512389502881933,-0.16311354640807435,0.005406896685538215,-0.0,-0.0,-0.0
37089000000,-0.015401202270103906,-0.16228051596205315,0.004086578895477245,-0.0,-0.0,-0.0
37099000000,-0.015764137349611258,-0.16116369499911917,0.0023475648470896874,-0.0,-0.0,-0.0
37109000000,-0.016031063323543843,-0.16032137848076602,0.0010598113950735966,-0.0,-0.0,-0.0
37119000000,-0.01629339193817489,-0.15947529504700475,-0.00021341775903897597,-0.0,-0.0,-0.0
37129000000,-0.01663649969194594,-0.1583416176082939,-0.0018899291192156834,-0.0,-0.0,-0.0
37139000000,-0.016888666782463715,-0.15748708530623312,-0.003131019107857265,-0.0,-0.0,-0.0
37149000000,-0.017136334015677646,-0.15662915552806736,-0.004357771866081906,-0.0,-0.0,-0.0
37158000000,-0.017460040785831726,-0.155480223960276,-0.0059726118613175425,-0.0,-0.0,-0.0
37169000000,-0.017697561756433035,-0.15461469807933284,-0.007167042146072629,-0.0,-0.0,-0.0
37179000000,-0.017930790056382536,-0.1537460102091599,-0.008347660174911535,-0.0,-0.0,-0.0
37188000000,-0.018235457810798102,-0.15258329744630064,-0.009901499836321586,-0.0,-0.0,-0.0
37198000000,-0.018458829868381158,-0.1517078874070021,-0.011050446901055782,-0.0,-0.0,-0.0
37209000000,-0.01867787253421437,-0.15082971244117407,-0.012185357384719406,-0.0,-0.0,-0.0
37219000000,-0.01896387400165819,-0.14965473987641056,-0.013678866768704301,-0.0,-0.0,-0.0
37229000000,-0.019173606309307804,-0.14877051353370374,-0.014783559086551037,-0.0,-0.0,-0.0
37239000000,-0.019379154386263586,-0.14788398728090796,-0.015874564816478903,-0.0,-0.0,-0.0
37249000000,-0.019647170000658243,-0.14669852201319417,-0.017309403371805178,-0.0,-0.0,-0.0
37259000000,-0.019843485482952464,-0.14580679111089304,-0.018370197873605654,-0.0,-0.0,-0.0
37269000000,-0.020035703824129756,-0.14491307348435437,-0.019417478721868983,-0.0,-0.0,-0.0
37279000000,-0.020286129909276213,-0.14371866593553573,-0.02079436563587908,-0.0,-0.0,-0.0
37289000000,-0.020469147885631336,-0.14282007918290104,-0.021811365416703664,-0.0,-0.0,-0.0
37299000000,-0.020648113746585487,-0.14192034305108586,-0.02281450663785118,-0.0,-0.0,-0.0
37308000000,-0.020881411597661118,-0.14071772603028612,-0.024134906859381498,-0.0,-0.0,-0.0
37319000000,-0.021051607262939722,-0.13981414185388674,-0.025109145016905927,-0.0,-0.0,-0.0
37328000000,-0.021217988259531077,-0.13890901061865865,-0.026070577902003674,-0.0,-0.0,-0.0
37338000000,-0.02143461327851164,-0.13770071066467723,-0.027334855569708483,-0.0,-0.0,-0.0
37348000000,-0.02159193920178755,-0.13679267652676033,-0.02826566908339021,-0.0,-0.0,-0.0
37358000000,-0.021745655849839726,-0.13588334096600505,-0.029184502728071396,-0.0,-0.0,-0.0
37369000000,-0.02194534536189623,-0.13466947947732436,-0.030391720090038075,-0.0,-0.0,-0.0
37378000000,-0.022091054386313706,-0.13375739080315108,-0.03128371336105713,-0.0,-0.0,-0.0
37389000000,-0.022232676062733398,-0.1328453322453765,-0.03216111646514472,-0.0,-0.0,-0.0
37399000000,-0.02241646356818958,-0.13162745694313907,-0.03331415096858633,-0.0,-0.0,-0.0
37409000000,-0.02255034911246277,-0.13071278487466015,-0.03416577908709166,-0.0,-0.0,-0.0
37419000000,-0.022680353544293427,-0.12979844039589983,-0.03500335479214676,-0.0,-0.0,-0.0
37429000000,-0.022848702598484184,-0.1285780610029014,-0.03610333856593739,-0.0,-0.0,-0.0
37439000000,-0.02297109174692901,-0.127661807044007,-0.036915355996216766,-0.0,-0.0,-0.0
37449000000,-0.02308966821318834,-0.12674617722923331,-0.03771341294254388,-0.0,-0.0,-0.0
37459000000,-0.023242922526962518,-0.12552443885749537,-0.0387610715342,-0.0,-0.0,-0.0
37469000000,-0.023354099467335743,-0.12460743884874928,-0.0395341186454159,-0.0,-0.0,-0.0
37479000000,-0.023461543389891298,-0.12369136032221979,-0.04029333827173316,-0.0,-0.0,-0.0
37488000000,-0.023600238544071964,-0.12246959792810208,-0.04129002527478886,-0.0,-0.0,-0.0
37499000000,-0.023699930566208106,-0.12155203313658482,-0.04202303576117427,-0.0,-0.0,-0.0
37509000000,-0.023796762941694485,-0.12063722546897405,-0.04274445671184698,-0.0,-0.0,-0.0
37519000000,-0.023921008000706383,-0.11941611775207701,-0.04369026210427193,-0.0,-0.0,-0.0
37528000000,-0.024010474538137414,-0.11849952241458822,-0.04438727095665551,-0.0,-0.0,-0.0
37539000000,-0.024096624954581723,-0.11758576617009141,-0.045070925403735106,-0.0,-0.0,-0.0
37549000000,-0.024206927464948836,-0.11636654899308506,-0.04596716302789246,-0.0,-0.0,-0.0
37558000000,-0.02428608171757657,-0.11545164737553548,-0.04662738877897137,-0.0,-0.0,-0.0
37569000000,-0.02436200259589935,-0.11453984053441127,-0.047274417486000836,-0.0,-0.0,-0.0
37578000000,-0.02445881299794652,-0.1133235538370381,-0.04812220338054768,-0.0,-0.0,-0.0
37589000000,-0.024527787508028795,-0.11241125194305562,-0.04874574187264627,-0.0,-0.0,-0.0
37598000000,-0.024593832755815552,-0.11150200559650705,-0.04935705069186297,-0.0,-0.0,-0.0
37609000000,-0.02467758038293655,-0.11028959326837723,-0.050157450028033526,-0.0,-0.0,-0.0
37619000000,-0.024737026618538063,-0.10938030807230838,-0.05074631847007939,-0.0,-0.0,-0.0
37629000000,-0.02479351517481078,-0.10847445869639337,-0.051322735395940816,-0.0,-0.0,-0.0
37638000000,-0.024864620797040948,-0.1072669065715636,-0.05207683349796173,-0.0,-0.0,-0.0
37649000000,-0.02491452144681211,-0.10636165536032113,-0.0526306131183633,-0.0,-0.0,-0.0
37658000000,-0.024961641237831057,-0.10545990107564747,-0.05317246330808556,-0.0,-0.0,-0.0
37669000000,-0.02502030343607025,-0.10425818104482361,-0.05388049659977269,-0.0,-0.0,-0.0
37678000000,-0.02506121633976441,-0.1033572747954777,-0.054400899960807776,-0.0,-0.0,-0.0
37688000000,-0.025099337744310127,-0.10246020911246069,-0.05490922504437969,-0.0,-0.0,-0.0
37699000000,-0.025146249663186203,-0.1012649372833798,-0.05557335194656869,-0.0,-0.0,-0.0
37708000000,-0.025178398927224642,-0.10036917928645604,-0.05606090429935414,-0.0,-0.0,-0.0
37719000000,-0.025207709506360983,-0.09947762520131348,-0.05653607410030517,-0.0,-0.0,-0.0
37729000000,-0.03172508378587456,-0.07276016597264212,-0.007692260526992374,-0.0,-0.0,-0.0
37738000000,-0.030362991816443533,-0.07266237025055748,-0.008378621334106334,-0.0,-0.0,-0.0
37749000000,-0.029082239537631557,-0.07260400041955749,-0.009004224638689953,-0.0,-0.0,-0.0
37758000000,-0.027423146879292537,-0.07255136480202788,-0.009865731253038659,-0.0,-0.0,-0.0
37769000000,-0.02620427797790943,-0.07252881272454326,-0.01053006365274656,-0.0,-0.0,-0.0
37779000000,-0.02501280820148388,-0.07251090521833839,-0.01120657103331347,-0.0,-0.0,-0.0
37788000000,-0.023443694571223257,-0.07250502916078087,-0.012113768827733682,-0.0,-0.0,-0.0
37798000000,-0.022287796779810846,-0.07250311478815463,-0.01280093166940397,-0.0,-0.0,-0.0
37809000000,-0.02114728537845368,-0.07250177238576022,-0.013487923030764844,-0.0,-0.0,-0.0
37818000000,-0.019647478728084835,-0.0725020581614143,-0.01440598333417638,-0.0,-0.0,-0.0
37828000000,-0.01854337028178878,-0.0724956533253436,-0.015098601940511531,-0.0,-0.0,-0.0
37839000000,-0.017454527211634478,-0.0724833244450532,-0.01579040530803344,-0.0,-0.0,-0.0
37849000000,-0.016025705635979586,-0.07245834075137697,-0.0167118653294218,-0.0,-0.0,-0.0
37859000000,-0.014972461503406892,-0.0724294194020898,-0.01740485691019694,-0.0,-0.0,-0.0
37868000000,-0.013936355253596457,-0.0723894946502508,-0.01810042960871126,-0.0,-0.0,-0.0
37878000000,-0.012580550246325713,-0.07231882481034158,-0.01903105726451851,-0.0,-0.0,-0.0
37888000000,-0.011477624325365868,-0.07224014259093205,-0.01981445847789204,-0.0,-0.0,-0.0
37898000000,-0.010501333076790992,-0.07215579703832996,-0.020520441283906517,-0.0,-0.0,-0.0
37909000000,-0.009542194431154966,-0.07205762560801711,-0.02122949320375687,-0.0,-0.0,-0.0
37919000000,-0.008288149410291925,-0.0719062881394721,-0.022179141098176574,-0.0,-0.0,-0.0
37929000000,-0.007368162595091786,-0.07177474242340855,-0.02289651475144946,-0.0,-0.0,-0.0
37939000000,-0.006466823495773795,-0.07162645622848564,-0.023619237161952782,-0.0,-0.0,-0.0
37949000000,-0.005291795100659221,-0.07140440348278004,-0.024589798040040026,-0.0,-0.0,-0.0
37959000000,-0.004431619146133359,-0.07121817144040453,-0.025323793462821428,-0.0,-0.0,-0.0
37969000000,-0.003590375432224782,-0.07101413711988165,-0.026063640594535472,-0.0,-0.0,-0.0
37979000000,-0.0024958976353629918,-0.07071622033746268,-0.027057855413640128,-0.0,-0.0,-0.0
37989000000,-0.0016963066854863557,-0.07047230877079307,-0.027809848637491478,-0.0,-0.0,-0.0
37998000000,-0.000915738130999465,-0.07021014075615738,-0.02856768087659627,-0.0,-0.0,-0.0
38009000000,9.769613306318326e-05,-0.06983405509708578,-0.029585919544546226,-0.0,-0.0,-0.0
38019000000,0.0008365248969884648,-0.06953134242960574,-0.030355622182926742,-0.0,-0.0,-0.0
38029000000,0.001556388923586505,-0.06921040005736714,-0.031130683785652227,-0.0,-0.0,-0.0
38039000000,0.002488928276895066,-0.06875580685592134,-0.03217134596800534,-0.0,-0.0,-0.0
38049000000,0.003167283439300399,-0.06839465838397775,-0.03295705224549856,-0.0,-0.0,-0.0
38058000000,0.0038268326406769105,-0.06801568976783899,-0.03374721677882553,-0.0,-0.0,-0.0
38069000000,0.004679230967604943,-0.06748448200254921,-0.03480674479659965,-0.0,-0.0,-0.0
38078000000,0.0052977478076426405,-0.06706641708653605,-0.035605465431790516,-0.0,-0.0,-0.0
38089000000,0.005897031346909193,-0.06663075825517742,-0.03640758622554863,-0.0,-0.0,-0.0
38099000000,0.0066701279532255554,-0.06602539639941644,-0.03748128909947879,-0.0,-0.0,-0.0
38109000000,0.007229709239249091,-0.06555277930812595,-0.03828922967742768,-0.0,-0.0,-0.0
38119000000,0.00777117627028346,-0.06506401764731444,-0.039099167289985415,-0.0,-0.0,-0.0
38129000000,0.008467079024772107,-0.06438882219284107,-0.040181559587624656,-0.0,-0.0,-0.0
38139000000,0.008969136153399263,-0.06386498306950085,-0.040994369213630553,-0.0,-0.0,-0.0
38149000000,0.009453506705983722,-0.0633260976427678,-0.04180767487011596,-0.0,-0.0,-0.0
38159000000,0.01007980694632467,-0.06258924564297233,-0.042888757282276174,-0.0,-0.0,-0.0
38168000000,0.010526837265139906,-0.06201910193272848,-0.043700876549154076,-0.0,-0.0,-0.0
38178000000,0.01095489698000989,-0.061433886478038456,-0.044511987305904284,-0.0,-0.0,-0.0
38188000000,0.011500933209974366,-0.06063359014674152,-0.04559190322512174,-0.0,-0.0,-0.0
38198000000,0.011891349351531392,-0.060018613119349355,-0.04639899738139488,-0.0,-0.0,-0.0
38209000000,0.012265874765356967,-0.05939129575974087,-0.04720380920381962,-0.0,-0.0,-0.0
38219000000,0.01274165615855304,-0.0585367464736883,-0.04827309844867226,-0.0,-0.0,-0.0
38228000000,0.013080576418934271,-0.05788284411269494,-0.04907084915173088,-0.0,-0.0,-0.0
38239000000,0.011660518749810393,-0.05651533940396269,-0.04965893366875696,-0.0,-0.0,-0.0
38248000000,0.013818700944721707,-0.056328027386460186,-0.05090213357845387,-0.0,-0.0,-0.0
38258000000,0.014113608241804456,-0.05565032926150272,-0.05167244497058595,-0.0,-0.0,-0.0
38269000000,0.014387756923179191,-0.05495353983224571,-0.052448631519197174,-0.0,-0.0,-0.0
38279000000,0.014730868465721096,-0.054009478922291604,-0.05347623363794259,-0.0,-0.0,-0.0
38288000000,0.014971618559012492,-0.053291495842189236,-0.05423949120017569,-0.0,-0.0,-0.0
38299000000,0.015196277602396002,-0.05256239090167896,-0.05499530330218853,-0.0,-0.0,-0.0
38309000000,0.015472161390913411,-0.05157964656976117,-0.05599304032170035,-0.0,-0.0,-0.0
38319000000,0.015665679278472677,-0.050835662582221414,-0.05673184639686957,-0.0,-0.0,-0.0
38329000000,0.01584586987911016,-0.0500851249097378,-0.05746271299583402,-0.0,-0.0,-0.0
38338000000,0.016066061761613338,-0.04907410542736862,-0.058425147365623736,-0.0,-0.0,-0.0
38348000000,0.016215721032034044,-0.04830929938522276,-0.0591355312648431,-0.0,-0.0,-0.0
38358000000,0.016352081686855747,-0.04753875588061908,-0.059836339217430125,-0.0,-0.0,-0.0
38368000000,0.01651534861774301,-0.04650269742719615,-0.060758079135519505,-0.0,-0.0,-0.0
38379000000,0.01662327679860085,-0.04572071333522193,-0.061436725518164634,-0.0,-0.0,-0.0
38389000000,0.016719007653497712,-0.04493407121971357,-0.062105511387180415,-0.0,-0.0,-0.0
38399000000,0.01682889344182123,-0.04387880636676945,-0.06298233209780199,-0.0,-0.0,-0.0
38408000000,0.016898076627889776,-0.04308359141972674,-0.06362709193044448,-0.0,-0.0,-0.0
38419000000,0.016955136523834322,-0.04228565628152415,-0.06425937283951404,-0.0,-0.0,-0.0
38428000000,0.017014538532321932,-0.04121669066649892,-0.06508674493829836,-0.0,-0.0,-0.0
38439000000,0.017054387369899532,-0.04041647442807139,-0.0657000821837905,-0.0,-0.0,-0.0
38449000000,0.01707500507039584,-0.03961075557477574,-0.06629231990340881,-0.0,-0.0,-0.0
38459000000,0.01708623289546338,-0.03853313177637408,-0.06706624427113554,-0.0,-0.0,-0.0
38468000000,0.01708372172508625,-0.03772417482923435,-0.0676320875124245,-0.0,-0.0,-0.0
38478000000,0.017070701008726197,-0.03691494457939697,-0.06818380728289304,-0.0,-0.0,-0.0
38489000000,0.017038496295130025,-0.03583461379030977,-0.068900659059462,-0.0,-0.0,-0.0
38499000000,0.01700386760170613,-0.035024251442466896,-0.06942350433199049,-0.0,-0.0,-0.0
38509000000,0.016959770209003577,-0.03421429830613818,-0.06993257351554918,-0.0,-0.0,-0.0
38519000000,0.016887359985343,-0.03313474290436739,-0.07059181031529406,-0.0,-0.0,-0.0
